BTS ASCII format

Type:         	Point 3D tracks
Measure unit: 	m

Tracks:       	1
Frequency:    	240 Hz
Frames:       	2737
Start time:   	0.000

 Frame	  Time	    l gr.X	    l gr.Y	    l gr.Z	
     0	 0.000	     0.090	     0.006	    -0.165	
     1	 0.004	     0.090	     0.006	    -0.165	
     2	 0.008	     0.090	     0.006	    -0.164	
     3	 0.013	     0.090	     0.006	    -0.165	
     4	 0.017	     0.089	     0.006	    -0.165	
     5	 0.021	     0.089	     0.006	    -0.165	
     6	 0.025	     0.090	     0.006	    -0.165	
     7	 0.029	     0.089	     0.006	    -0.166	
     8	 0.033	     0.089	     0.006	    -0.165	
     9	 0.038	     0.090	     0.006	    -0.165	
    10	 0.042	     0.089	     0.006	    -0.165	
    11	 0.046	     0.089	     0.006	    -0.166	
    12	 0.050	     0.089	     0.006	    -0.165	
    13	 0.054	     0.089	     0.006	    -0.165	
    14	 0.058	     0.090	     0.006	    -0.165	
    15	 0.063	     0.090	     0.006	    -0.165	
    16	 0.067	     0.089	     0.006	    -0.165	
    17	 0.071	     0.090	     0.006	    -0.165	
    18	 0.075	     0.090	     0.006	    -0.165	
    19	 0.079	     0.090	     0.006	    -0.165	
    20	 0.083	     0.090	     0.006	    -0.165	
    21	 0.087	     0.089	     0.006	    -0.165	
    22	 0.092	     0.090	     0.006	    -0.165	
    23	 0.096	     0.089	     0.006	    -0.165	
    24	 0.100	     0.090	     0.006	    -0.165	
    25	 0.104	     0.089	     0.006	    -0.165	
    26	 0.108	     0.090	     0.006	    -0.165	
    27	 0.112	     0.090	     0.006	    -0.165	
    28	 0.117	     0.089	     0.006	    -0.165	
    29	 0.121	     0.090	     0.006	    -0.165	
    30	 0.125	     0.089	     0.006	    -0.165	
    31	 0.129	     0.089	     0.006	    -0.165	
    32	 0.133	     0.090	     0.006	    -0.165	
    33	 0.138	     0.090	     0.006	    -0.165	
    34	 0.142	     0.089	     0.006	    -0.165	
    35	 0.146	     0.089	     0.006	    -0.166	
    36	 0.150	     0.089	     0.006	    -0.165	
    37	 0.154	     0.090	     0.006	    -0.165	
    38	 0.158	     0.089	     0.006	    -0.166	
    39	 0.162	     0.089	     0.006	    -0.166	
    40	 0.167	     0.089	     0.006	    -0.166	
    41	 0.171	     0.090	     0.006	    -0.165	
    42	 0.175	     0.089	     0.006	    -0.166	
    43	 0.179	     0.090	     0.006	    -0.166	
    44	 0.183	     0.089	     0.006	    -0.166	
    45	 0.188	     0.089	     0.006	    -0.166	
    46	 0.192	     0.090	     0.006	    -0.165	
    47	 0.196	     0.090	     0.006	    -0.165	
    48	 0.200	     0.090	     0.006	    -0.165	
    49	 0.204	     0.089	     0.006	    -0.166	
    50	 0.208	     0.090	     0.006	    -0.166	
    51	 0.213	     0.090	     0.006	    -0.166	
    52	 0.217	     0.090	     0.006	    -0.166	
    53	 0.221	     0.090	     0.006	    -0.165	
    54	 0.225	     0.089	     0.006	    -0.166	
    55	 0.229	     0.089	     0.006	    -0.166	
    56	 0.233	     0.090	     0.006	    -0.166	
    57	 0.237	     0.089	     0.006	    -0.166	
    58	 0.242	     0.089	     0.006	    -0.166	
    59	 0.246	     0.090	     0.006	    -0.166	
    60	 0.250	     0.090	     0.006	    -0.166	
    61	 0.254	     0.089	     0.006	    -0.166	
    62	 0.258	     0.090	     0.006	    -0.165	
    63	 0.262	     0.089	     0.006	    -0.166	
    64	 0.267	     0.089	     0.006	    -0.166	
    65	 0.271	     0.090	     0.006	    -0.166	
    66	 0.275	     0.090	     0.006	    -0.166	
    67	 0.279	     0.090	     0.006	    -0.166	
    68	 0.283	     0.090	     0.006	    -0.166	
    69	 0.287	     0.090	     0.006	    -0.166	
    70	 0.292	     0.090	     0.006	    -0.166	
    71	 0.296	     0.090	     0.006	    -0.166	
    72	 0.300	     0.089	     0.006	    -0.166	
    73	 0.304	     0.089	     0.006	    -0.166	
    74	 0.308	     0.089	     0.006	    -0.166	
    75	 0.313	     0.089	     0.006	    -0.166	
    76	 0.317	     0.090	     0.006	    -0.166	
    77	 0.321	     0.089	     0.006	    -0.166	
    78	 0.325	     0.089	     0.006	    -0.166	
    79	 0.329	     0.090	     0.006	    -0.166	
    80	 0.333	     0.090	     0.006	    -0.165	
    81	 0.338	     0.089	     0.006	    -0.166	
    82	 0.342	     0.089	     0.006	    -0.165	
    83	 0.346	     0.089	     0.006	    -0.166	
    84	 0.350	     0.089	     0.006	    -0.165	
    85	 0.354	     0.090	     0.006	    -0.165	
    86	 0.358	     0.090	     0.006	    -0.165	
    87	 0.363	     0.090	     0.006	    -0.165	
    88	 0.367	     0.089	     0.006	    -0.166	
    89	 0.371	     0.090	     0.006	    -0.166	
    90	 0.375	     0.089	     0.006	    -0.166	
    91	 0.379	     0.089	     0.006	    -0.166	
    92	 0.383	     0.090	     0.006	    -0.166	
    93	 0.387	     0.090	     0.006	    -0.166	
    94	 0.392	     0.090	     0.006	    -0.165	
    95	 0.396	     0.089	     0.006	    -0.166	
    96	 0.400	     0.090	     0.006	    -0.166	
    97	 0.404	     0.090	     0.006	    -0.166	
    98	 0.408	     0.090	     0.006	    -0.166	
    99	 0.412	     0.090	     0.006	    -0.166	
   100	 0.417	     0.089	     0.006	    -0.166	
   101	 0.421	     0.089	     0.006	    -0.166	
   102	 0.425	     0.090	     0.006	    -0.165	
   103	 0.429	     0.090	     0.006	    -0.165	
   104	 0.433	     0.090	     0.006	    -0.165	
   105	 0.438	     0.090	     0.006	    -0.166	
   106	 0.442	     0.090	     0.006	    -0.165	
   107	 0.446	     0.089	     0.006	    -0.166	
   108	 0.450	     0.090	     0.006	    -0.165	
   109	 0.454	     0.090	     0.006	    -0.165	
   110	 0.458	     0.090	     0.006	    -0.165	
   111	 0.463	     0.089	     0.006	    -0.166	
   112	 0.467	     0.089	     0.006	    -0.166	
   113	 0.471	     0.090	     0.006	    -0.165	
   114	 0.475	     0.089	     0.006	    -0.165	
   115	 0.479	     0.090	     0.006	    -0.165	
   116	 0.483	     0.090	     0.006	    -0.165	
   117	 0.488	     0.090	     0.006	    -0.165	
   118	 0.492	     0.090	     0.006	    -0.165	
   119	 0.496	     0.089	     0.006	    -0.166	
   120	 0.500	     0.090	     0.006	    -0.165	
   121	 0.504	     0.090	     0.006	    -0.165	
   122	 0.508	     0.090	     0.006	    -0.165	
   123	 0.512	     0.090	     0.006	    -0.165	
   124	 0.517	     0.089	     0.006	    -0.164	
   125	 0.521	     0.090	     0.006	    -0.164	
   126	 0.525	     0.090	     0.006	    -0.165	
   127	 0.529	     0.090	     0.006	    -0.164	
   128	 0.533	     0.090	     0.006	    -0.164	
   129	 0.538	     0.090	     0.006	    -0.165	
   130	 0.542	     0.090	     0.006	    -0.165	
   131	 0.546	     0.089	     0.006	    -0.164	
   132	 0.550	     0.090	     0.006	    -0.165	
   133	 0.554	     0.090	     0.006	    -0.165	
   134	 0.558	     0.090	     0.006	    -0.164	
   135	 0.563	     0.090	     0.006	    -0.164	
   136	 0.567	     0.089	     0.006	    -0.164	
   137	 0.571	     0.090	     0.006	    -0.164	
   138	 0.575	     0.090	     0.006	    -0.164	
   139	 0.579	     0.090	     0.006	    -0.164	
   140	 0.583	     0.090	     0.006	    -0.164	
   141	 0.587	     0.090	     0.006	    -0.164	
   142	 0.592	     0.090	     0.006	    -0.164	
   143	 0.596	     0.090	     0.006	    -0.164	
   144	 0.600	     0.090	     0.006	    -0.164	
   145	 0.604	     0.089	     0.006	    -0.164	
   146	 0.608	     0.090	     0.006	    -0.164	
   147	 0.613	     0.090	     0.006	    -0.164	
   148	 0.617	     0.090	     0.006	    -0.164	
   149	 0.621	     0.090	     0.006	    -0.163	
   150	 0.625	     0.090	     0.006	    -0.163	
   151	 0.629	     0.090	     0.006	    -0.163	
   152	 0.633	     0.090	     0.006	    -0.163	
   153	 0.637	     0.090	     0.006	    -0.163	
   154	 0.642	     0.090	     0.006	    -0.164	
   155	 0.646	     0.090	     0.006	    -0.164	
   156	 0.650	     0.090	     0.006	    -0.163	
   157	 0.654	     0.090	     0.006	    -0.164	
   158	 0.658	     0.090	     0.006	    -0.163	
   159	 0.663	     0.090	     0.006	    -0.163	
   160	 0.667	     0.090	     0.006	    -0.164	
   161	 0.671	     0.090	     0.006	    -0.163	
   162	 0.675	     0.090	     0.006	    -0.164	
   163	 0.679	     0.090	     0.006	    -0.163	
   164	 0.683	     0.090	     0.006	    -0.163	
   165	 0.688	     0.090	     0.006	    -0.163	
   166	 0.692	     0.090	     0.006	    -0.163	
   167	 0.696	     0.089	     0.006	    -0.164	
   168	 0.700	     0.090	     0.006	    -0.163	
   169	 0.704	     0.090	     0.006	    -0.163	
   170	 0.708	     0.090	     0.006	    -0.163	
   171	 0.712	     0.090	     0.006	    -0.163	
   172	 0.717	     0.090	     0.006	    -0.163	
   173	 0.721	     0.090	     0.006	    -0.163	
   174	 0.725	     0.090	     0.006	    -0.163	
   175	 0.729	     0.090	     0.006	    -0.163	
   176	 0.733	     0.090	     0.006	    -0.163	
   177	 0.738	     0.090	     0.006	    -0.163	
   178	 0.742	     0.090	     0.006	    -0.163	
   179	 0.746	     0.090	     0.006	    -0.163	
   180	 0.750	     0.090	     0.006	    -0.162	
   181	 0.754	     0.090	     0.006	    -0.163	
   182	 0.758	     0.090	     0.006	    -0.162	
   183	 0.762	     0.090	     0.006	    -0.162	
   184	 0.767	     0.090	     0.006	    -0.162	
   185	 0.771	     0.090	     0.006	    -0.162	
   186	 0.775	     0.090	     0.006	    -0.162	
   187	 0.779	     0.090	     0.006	    -0.162	
   188	 0.783	     0.090	     0.006	    -0.162	
   189	 0.788	     0.090	     0.006	    -0.162	
   190	 0.792	     0.090	     0.006	    -0.162	
   191	 0.796	     0.090	     0.006	    -0.162	
   192	 0.800	     0.090	     0.006	    -0.162	
   193	 0.804	     0.090	     0.006	    -0.162	
   194	 0.808	     0.090	     0.006	    -0.161	
   195	 0.813	     0.090	     0.006	    -0.161	
   196	 0.817	     0.090	     0.006	    -0.162	
   197	 0.821	     0.090	     0.006	    -0.162	
   198	 0.825	     0.090	     0.006	    -0.161	
   199	 0.829	     0.090	     0.006	    -0.161	
   200	 0.833	     0.090	     0.006	    -0.161	
   201	 0.837	     0.090	     0.006	    -0.161	
   202	 0.842	     0.090	     0.006	    -0.161	
   203	 0.846	     0.090	     0.006	    -0.161	
   204	 0.850	     0.090	     0.006	    -0.161	
   205	 0.854	     0.090	     0.006	    -0.161	
   206	 0.858	     0.090	     0.006	    -0.160	
   207	 0.863	     0.090	     0.006	    -0.161	
   208	 0.867	     0.090	     0.006	    -0.161	
   209	 0.871	     0.090	     0.006	    -0.161	
   210	 0.875	     0.090	     0.006	    -0.161	
   211	 0.879	     0.090	     0.006	    -0.161	
   212	 0.883	     0.090	     0.006	    -0.161	
   213	 0.887	     0.090	     0.006	    -0.161	
   214	 0.892	     0.090	     0.006	    -0.161	
   215	 0.896	     0.090	     0.006	    -0.161	
   216	 0.900	     0.090	     0.006	    -0.161	
   217	 0.904	     0.090	     0.006	    -0.161	
   218	 0.908	     0.090	     0.006	    -0.160	
   219	 0.913	     0.090	     0.006	    -0.161	
   220	 0.917	     0.090	     0.006	    -0.161	
   221	 0.921	     0.090	     0.006	    -0.161	
   222	 0.925	     0.090	     0.006	    -0.161	
   223	 0.929	     0.090	     0.006	    -0.160	
   224	 0.933	     0.090	     0.006	    -0.160	
   225	 0.938	     0.090	     0.006	    -0.160	
   226	 0.942	     0.090	     0.006	    -0.160	
   227	 0.946	     0.090	     0.006	    -0.160	
   228	 0.950	     0.090	     0.006	    -0.160	
   229	 0.954	     0.090	     0.006	    -0.161	
   230	 0.958	     0.090	     0.006	    -0.161	
   231	 0.962	     0.090	     0.006	    -0.160	
   232	 0.967	     0.090	     0.006	    -0.160	
   233	 0.971	     0.090	     0.006	    -0.160	
   234	 0.975	     0.090	     0.006	    -0.161	
   235	 0.979	     0.090	     0.006	    -0.160	
   236	 0.983	     0.090	     0.006	    -0.160	
   237	 0.988	     0.090	     0.006	    -0.160	
   238	 0.992	     0.090	     0.006	    -0.160	
   239	 0.996	     0.090	     0.006	    -0.160	
   240	 1.000	     0.090	     0.006	    -0.160	
   241	 1.004	     0.090	     0.006	    -0.160	
   242	 1.008	     0.090	     0.006	    -0.160	
   243	 1.013	     0.090	     0.006	    -0.160	
   244	 1.017	     0.090	     0.006	    -0.160	
   245	 1.021	     0.090	     0.006	    -0.159	
   246	 1.025	     0.090	     0.006	    -0.160	
   247	 1.029	     0.090	     0.006	    -0.160	
   248	 1.033	     0.090	     0.006	    -0.159	
   249	 1.038	     0.090	     0.006	    -0.159	
   250	 1.042	     0.090	     0.006	    -0.159	
   251	 1.046	     0.090	     0.006	    -0.160	
   252	 1.050	     0.090	     0.006	    -0.159	
   253	 1.054	     0.090	     0.006	    -0.159	
   254	 1.058	     0.090	     0.006	    -0.159	
   255	 1.063	     0.090	     0.006	    -0.159	
   256	 1.067	     0.090	     0.006	    -0.160	
   257	 1.071	     0.090	     0.006	    -0.159	
   258	 1.075	     0.090	     0.006	    -0.159	
   259	 1.079	     0.090	     0.006	    -0.159	
   260	 1.083	     0.090	     0.006	    -0.158	
   261	 1.087	     0.091	     0.006	    -0.158	
   262	 1.092	     0.090	     0.006	    -0.158	
   263	 1.096	     0.090	     0.006	    -0.159	
   264	 1.100	     0.090	     0.006	    -0.159	
   265	 1.104	     0.090	     0.006	    -0.158	
   266	 1.108	     0.090	     0.006	    -0.158	
   267	 1.112	     0.090	     0.006	    -0.158	
   268	 1.117	     0.090	     0.006	    -0.158	
   269	 1.121	     0.090	     0.006	    -0.157	
   270	 1.125	     0.090	     0.006	    -0.159	
   271	 1.129	     0.090	     0.006	    -0.158	
   272	 1.133	     0.090	     0.006	    -0.158	
   273	 1.138	     0.090	     0.006	    -0.158	
   274	 1.142	     0.090	     0.006	    -0.158	
   275	 1.146	     0.090	     0.006	    -0.158	
   276	 1.150	     0.091	     0.006	    -0.157	
   277	 1.154	     0.090	     0.006	    -0.158	
   278	 1.158	     0.090	     0.006	    -0.157	
   279	 1.163	     0.090	     0.006	    -0.157	
   280	 1.167	     0.090	     0.006	    -0.158	
   281	 1.171	     0.090	     0.006	    -0.158	
   282	 1.175	     0.090	     0.006	    -0.158	
   283	 1.179	     0.090	     0.006	    -0.158	
   284	 1.183	     0.090	     0.006	    -0.158	
   285	 1.188	     0.090	     0.006	    -0.158	
   286	 1.192	     0.090	     0.006	    -0.158	
   287	 1.196	     0.090	     0.006	    -0.158	
   288	 1.200	     0.090	     0.006	    -0.158	
   289	 1.204	     0.090	     0.006	    -0.158	
   290	 1.208	     0.090	     0.006	    -0.158	
   291	 1.212	     0.090	     0.006	    -0.158	
   292	 1.217	     0.090	     0.006	    -0.158	
   293	 1.221	     0.090	     0.006	    -0.158	
   294	 1.225	     0.090	     0.006	    -0.158	
   295	 1.229	     0.090	     0.006	    -0.158	
   296	 1.233	     0.090	     0.006	    -0.158	
   297	 1.237	     0.090	     0.006	    -0.158	
   298	 1.242	     0.090	     0.006	    -0.158	
   299	 1.246	     0.090	     0.006	    -0.158	
   300	 1.250	     0.090	     0.006	    -0.158	
   301	 1.254	     0.090	     0.006	    -0.159	
   302	 1.258	     0.090	     0.006	    -0.158	
   303	 1.263	     0.090	     0.006	    -0.158	
   304	 1.267	     0.090	     0.006	    -0.159	
   305	 1.271	     0.090	     0.006	    -0.159	
   306	 1.275	     0.090	     0.006	    -0.159	
   307	 1.279	     0.090	     0.006	    -0.158	
   308	 1.283	     0.090	     0.006	    -0.158	
   309	 1.288	     0.090	     0.006	    -0.159	
   310	 1.292	     0.090	     0.006	    -0.159	
   311	 1.296	     0.090	     0.006	    -0.159	
   312	 1.300	     0.090	     0.006	    -0.159	
   313	 1.304	     0.090	     0.006	    -0.159	
   314	 1.308	     0.090	     0.006	    -0.159	
   315	 1.313	     0.090	     0.006	    -0.159	
   316	 1.317	     0.090	     0.006	    -0.159	
   317	 1.321	     0.090	     0.006	    -0.159	
   318	 1.325	     0.090	     0.006	    -0.159	
   319	 1.329	     0.090	     0.006	    -0.159	
   320	 1.333	     0.090	     0.006	    -0.158	
   321	 1.337	     0.090	     0.006	    -0.158	
   322	 1.342	     0.090	     0.006	    -0.158	
   323	 1.346	     0.090	     0.006	    -0.159	
   324	 1.350	     0.090	     0.006	    -0.159	
   325	 1.354	     0.090	     0.006	    -0.158	
   326	 1.358	     0.090	     0.006	    -0.159	
   327	 1.362	     0.090	     0.006	    -0.159	
   328	 1.367	     0.090	     0.006	    -0.158	
   329	 1.371	     0.090	     0.006	    -0.159	
   330	 1.375	     0.090	     0.006	    -0.159	
   331	 1.379	     0.090	     0.006	    -0.159	
   332	 1.383	     0.090	     0.006	    -0.159	
   333	 1.388	     0.090	     0.006	    -0.159	
   334	 1.392	     0.090	     0.006	    -0.159	
   335	 1.396	     0.090	     0.006	    -0.159	
   336	 1.400	     0.090	     0.006	    -0.159	
   337	 1.404	     0.090	     0.006	    -0.159	
   338	 1.408	     0.090	     0.006	    -0.158	
   339	 1.413	     0.091	     0.006	    -0.159	
   340	 1.417	     0.090	     0.006	    -0.159	
   341	 1.421	     0.090	     0.006	    -0.159	
   342	 1.425	     0.090	     0.006	    -0.159	
   343	 1.429	     0.090	     0.006	    -0.159	
   344	 1.433	     0.090	     0.006	    -0.158	
   345	 1.438	     0.090	     0.006	    -0.159	
   346	 1.442	     0.090	     0.006	    -0.159	
   347	 1.446	     0.090	     0.006	    -0.159	
   348	 1.450	     0.090	     0.006	    -0.159	
   349	 1.454	     0.090	     0.006	    -0.159	
   350	 1.458	     0.090	     0.006	    -0.159	
   351	 1.462	     0.090	     0.006	    -0.159	
   352	 1.467	     0.090	     0.006	    -0.159	
   353	 1.471	     0.090	     0.006	    -0.159	
   354	 1.475	     0.090	     0.006	    -0.159	
   355	 1.479	     0.090	     0.006	    -0.159	
   356	 1.483	     0.090	     0.006	    -0.159	
   357	 1.487	     0.090	     0.006	    -0.159	
   358	 1.492	     0.090	     0.006	    -0.159	
   359	 1.496	     0.091	     0.006	    -0.159	
   360	 1.500	     0.091	     0.006	    -0.159	
   361	 1.504	     0.090	     0.006	    -0.159	
   362	 1.508	     0.090	     0.006	    -0.159	
   363	 1.513	     0.090	     0.006	    -0.159	
   364	 1.517	     0.090	     0.006	    -0.159	
   365	 1.521	     0.090	     0.006	    -0.159	
   366	 1.525	     0.091	     0.006	    -0.159	
   367	 1.529	     0.090	     0.006	    -0.158	
   368	 1.533	     0.090	     0.006	    -0.159	
   369	 1.538	     0.090	     0.006	    -0.159	
   370	 1.542	     0.090	     0.006	    -0.158	
   371	 1.546	     0.090	     0.006	    -0.159	
   372	 1.550	     0.090	     0.006	    -0.159	
   373	 1.554	     0.090	     0.006	    -0.159	
   374	 1.558	     0.090	     0.006	    -0.158	
   375	 1.563	     0.090	     0.006	    -0.158	
   376	 1.567	     0.090	     0.006	    -0.159	
   377	 1.571	     0.090	     0.006	    -0.159	
   378	 1.575	     0.090	     0.006	    -0.158	
   379	 1.579	     0.090	     0.006	    -0.159	
   380	 1.583	     0.091	     0.006	    -0.159	
   381	 1.587	     0.090	     0.006	    -0.159	
   382	 1.592	     0.090	     0.006	    -0.158	
   383	 1.596	     0.091	     0.006	    -0.158	
   384	 1.600	     0.090	     0.006	    -0.158	
   385	 1.604	     0.090	     0.006	    -0.158	
   386	 1.608	     0.090	     0.006	    -0.158	
   387	 1.612	     0.090	     0.006	    -0.159	
   388	 1.617	     0.090	     0.006	    -0.159	
   389	 1.621	     0.090	     0.006	    -0.158	
   390	 1.625	     0.091	     0.006	    -0.158	
   391	 1.629	     0.090	     0.006	    -0.159	
   392	 1.633	     0.090	     0.006	    -0.158	
   393	 1.638	     0.090	     0.006	    -0.158	
   394	 1.642	     0.090	     0.006	    -0.159	
   395	 1.646	     0.090	     0.006	    -0.159	
   396	 1.650	     0.091	     0.006	    -0.158	
   397	 1.654	     0.090	     0.006	    -0.158	
   398	 1.658	     0.090	     0.006	    -0.158	
   399	 1.663	     0.090	     0.006	    -0.158	
   400	 1.667	     0.090	     0.006	    -0.158	
   401	 1.671	     0.090	     0.006	    -0.159	
   402	 1.675	     0.090	     0.006	    -0.159	
